-2
3
5
5
3
-3
-10
-17
-23
-27
-28
-26
-21
-14
-7
-1
4
6
6
4
0
-3
-7
-9
-11
-11
-11
-10
-8
-6
-4
-1
2
4
6
7
6
4
0
-4
-9
-13
-16
-17
-17
-15
-13
-11
-10
-11
-12
-15
-18
-20
-20
-19
-16
-12
-7
-3
2
4
6
7
6
6
6
6
7
8
9
10
10
10
10
10
9
9
9
10
10
11
11
11
10
8
6
4
2
0
-3
-5
-6
-8
-10
-11
-13
-14
-14
-15
-15
-15
-16
-16
-17
-17
-19
-20
-21
-23
-24
-24
-24
-23
-21
-19
-17
-15
-14
-14
-15
-17
-19
-21
-20
-16
-8
3
18
36
54
73
90
105
115
120
121
116
106
91
74
54
33
14
-3
-17
-25
-30
-29
-26
-20
-15
-9
-6
-5
-6
-8
-11
-14
-16
-18
-18
-18
-18
-18
-18
-18
-17
-17
-16
-14
-13
-13
-12
-13
-15
-16
-18
-19
-19
-18
-16
-14
-13
-13
-14
-17
-19
-22
-23
-22
-19
-13
-7
0
6
9
11
9
6
2
-2
-6
-8
-9
-8
-7
-5
-3
-1
0
1
2
5
8
12
17
23
27
31
34
34
32
28
22
16
10
6
5
6
12
20
31
43
55
65
74
79
81
81
79
77
74
73
72
73
75
77
79
80
79
78
75
71
66
62
58
54
51
48
45
42
38
33
28
23
17
12
6
1
-2
-5
-6
-7
-6
-4
-3
-2
-2
-4
-8
-13
-19
-24
-28
-30
-29
-26
-21
-14
-8
-4
-2
-2
-4
-8
-12
-15
-16
-15
-12
-9
-5
-3
-1
-2
-3
-6
-8
-11
-13
-15
-17
-20
-23
-26
-28
-29
-29
-26
-21
-15
-9
-4
0
1
0
-3
-7
-11
-13
-14
-14
-12
-10
-8
-8
-10
-13
-17
-20
-23
-22
-20
-16
-11
-6
-4
-4
-7
-14
-22
-30
-36
-39
-39
-34
-27
-19
-11
-4
-1
0
-2
-6
-9
-12
-13
-12
-9
-6
-4
-3
-4
-8
-13
-18
-21
-22
-20
-14
-5
4
13
19
21
19
14
7
-1
-7
-11
-11
-8
-2
4
11
16
18
17
14
9
2
-5
-11
-15
-19
-20
-21
-20
-18
-16
-14
-13
-13
-15
-19
-24
-29
-35
-41
-44
-45
-43
-39
-33
-27
-20
-16
-14
-14
-17
-20
-24
-28
-29
-29
-27
-23
-17
-11
-4
4
13
25
39
55
74
93
111
126
136
139
134
121
101
77
51
25
2
-15
-28
-35
-38
-37
-35
-32
-30
-28
-27
-26
-24
-22
-20
-17
-14
-12
-12
-13
-16
-20
-25
-28
-31
-32
-31
-30
-27
-24
-22
-19
-18
-17
-16
-15
-15
-14
-13
-13
-13
-14
-14
-14
-14
-13
-11
-9
-7
-5
-4
-4
-4
-5
-6
-6
-6
-6
-6
-8
-10
-14
-19
-23
-26
-27
-25
-19
-11
-2
6
13
16
16
13
10
6
5
6
11
18
26
33
37
38
36
31
27
24
24
28
36
46
56
64
69
70
67
63
58
56
57
62
70
79
88
93
95
91
83
71
59
48
39
34
31
32
33
35
34
32
28
22
15
9
4
-1
-4
-6
-8
-10
-13
-17
-22
-27
-32
-35
-37
-36
-33
-28
-22
-15
-9
-3
0
2
2
0
-3
-8
-13
-17
-22
-26
-29
-31
-32
-33
-32
-30
-27
-23
-17
-12
-7
-4
-2
-3
-6
-11
-18
-25
-31
-36
-38
-37
-33
-26
-19
-10
-2
5
11
14
14
12
8
2
-6
-16
-25
-35
-43
-50
-53
-52
-48
-41
-31
-20
-9
0
7
11
11
10
6
2
-2
-6
-9
-11
-14
-16
-20
-23
-27
-30
-32
-31
-29
-25
-20
-14
-9
-4
-2
-1
-1
-2
-4
-6
-8
-8
-8
-8
-6
-5
-2
0
2
5
7
9
10
10
10
8
5
2
-3
-8
-13
-18
-23
-27
-30
-31
-31
-29
-27
-23
-19
-16
-14
-12
-11
-12
-12
-13
-14
-14
-15
-15
-16
-18
-21
-24
-28
-32
-35
-37
-37
-36
-33
-29
-24
-19
-14
-8
-3
4
12
22
35
50
67
84
100
113
122
126
124
117
104
88
69
48
27
8
-10
-24
-35
-42
-45
-44
-41
-36
-29
-23
-17
-13
-11
-11
-12
-13
-14
-14
-14
-13
-13
-13
-15
-18
-22
-27
-32
-35
-36
-34
-31
-26
-21
-17
-15
-15
-18
-21
-25
-28
-28
-26
-22
-17
-11
-6
-4
-4
-6
-10
-15
-20
-23
-24
-23
-21
-16
-10
-4
2
8
13
15
16
14
10
4
-3
-10
-17
-21
-21
-19
-13
-5
5
14
23
29
34
36
38
38
38
38
38
39
39
40
41
42
43
45
48
51
55
59
62
66
69
71
73
76
78
80
82
84
84
81
77
69
58
46
34
22
12
5
2
1
3
5
7
8
7
4
1
-3
-7
-10
-12
-13
-14
-15
-16
-17
-18
-19
-20
-20
-19
-17
-15
-12
-11
-10
-10
-11
-14
-16
-19
-22
-25
-27
-28
-29
-30
-29
-27
-25
-23
-20
-17
-15
-14
-13
-14
-15
-15
-15
-15
-13
-11
-9
-6
-5
-4
-5
-6
-9
-12
-14
-17
-19
-19
-20
-19
-19
-18
-18
-18
-19
-21
-22
-24
-25
-24
-23
-20
-16
-11
-6
-2
1
3
3
1
-2
-6
-10
-14
-16
-16
-14
-11
-6
-3
0
1
0
-5
-11
-19
-27
-33
-37
-38
-36
-30
-22
-13
-4
4
9
13
15
14
13
12
10
8
7
5
4
3
1
0
-1
-2
-2
-2
-1
-1
-2
-4
-7
-12
-16
-21
-26
-29
-31
-31
-30
-28
-26
-23
-21
-18
-17
-16
-15
-16
-16
-18
-20
-22
-23
-25
-26
-26
-26
-26
-26
-28
-29
-31
-33
-32
-29
-22
-10
6
24
45
65
83
97
106
111
111
107
101
92
82
70
58
45
31
17
5
-6
-15
-21
-23
-24
-22
-20
-18
-17
-17
-17
-17
-17
-17
-17
-17
-18
-20
-23
-26
-30
-33
-34
-33
-31
-26
-22
-17
-14
-14
-15
-18
-22
-26
-30
-32
-32
-30
-28
-25
-22
-20
-18
-16
-15
-13
-12
-10
-8
-6
-4
-2
-1
1
2
2
1
0
-1
-3
-5
-7
-8
-8
-7
-6
-4
-1
1
3
5
7
10
13
16
19
23
25
27
28
28
28
27
28
29
32
36
41
46
51
56
59
61
63
64
65
65
67
68
70
71
72
73
73
73
72
69
66
61
55
48
41
34
28
23
20
19
18
19
18
17
14
9
3
-2
-7
-10
-11
-9
-6
-3
0
2
1
-3
-8
-15
-21
-25
-27
-27
-24
-19
-13
-8
-4
-3
-5
-8
-13
-18
-22
-24
-24
-21
-15
-9
-3
1
2
0
-4
-11
-19
-27
-32
-35
-35
-32
-26
-20
-13
-8
-6
-5
-7
-11
-16
-22
-26
-29
-31
-31
-30
-26
-22
-17
-13
-9
-6
-4
-5
-6
-9
-11
-14
-15
-15
-13
-9
-5
0
4
6
8
7
5
2
-2
-7
-13
-18
-22
-26
-29
-31
-31
-31
-29
-27
-25
-22
-19
-15
-11
-6
-1
4
9
13
15
16
15
12
9
5
3
2
2
4
6
8
9
8
5
1
-4
-8
-11
-12
-12
-11
-10
-10
-11
-13
-16
-19
-23
-25
-26
-26
-25
-23
-21
-20
-19
-19
-19
-19
-20
-21
-21
-23
-24
-26
-28
-29
-30
-29
-28
-26
-24
-22
-21
-21
-22
-22
-19
-13
-3
13
33
56
79
101
118
128
131
125
113
95
74
53
32
15
2
-7
-13
-15
-15
-14
-13
-13
-14
-16
-19
-24
-28
-32
-35
-36
-35
-32
-29
-25
-22
-21
-22
-24
-26
-28
-29
-28
-24
-19
-13
-7
-3
-1
-2
-5
-10
-15
-19
-22
-22
-20
-18
-14
-12
-11
-12
-14
-16
-18
-19
-17
-14
-9
-3
2
6
7
6
3
-3
-9
-15
-20
-22
-22
-18
-13
-5
3
10
16
20
23
24
24
23
23
23
23
23
23
23
21
18
16
14
13
16
21
29
39
49
59
67
72
74
74
71
68
65
63
64
66
69
72
75
77
77
76
74
71
68
64
59
54
47
40
32
24
17
10
5
2
0
-1
-1
-1
-1
-2
-3
-4
-5
-6
-7
-8
-10
-12
-16
-20
-25
-29
-31
-31
-29
-24
-18
-13
-8
-6
-6
-8
-13
-18
-22
-24
-24
-21
-17
-11
-7
-4
-4
-8
-13
-20
-28
-34
-37
-37
-34
-29
-21
-14
-7
-1
2
2
0
-3
-8
-13
-18
-22
-25
-28
-28
-28
-27
-25
-22
-18
-14
-10
-5
-2
1
2
2
0
-5
-10
-17
-23
-28
-31
-31
-29
-23
-16
-9
-2
2
3
2
-3
-10
-18
-26
-31
-35
-35
-33
-28
-22
-16
-11
-7
-5
-6
-7
-10
-12
-13
-13
-11
-7
-3
0
3
5
5
4
1
-1
-4
-5
-5
-3
0
3
6
9
11
12
11
10
8
5
0
-6
-13
-21
-28
-35
-40
-42
-42
-37
-31
-22
-14
-7
-3
-2
-4
-10
-17
-25
-32
-37
-39
-38
-36
-32
-28
-26
-26
-27
-31
-34
-37
-36
-32
-23
-9
10
33
57
81
103
120
132
136
133
124
108
89
68
47
28
12
0
-8
-12
-14
-13
-12
-12
-11
-12
-13
-14
-16
-18
-20
-22
-24
-26
-27
-27
-27
-27
-27
-26
-26
-25
-26
-26
-27
-28
-29
-29
-28
-27
-26
-24
-21
-18
-15
-12
-9
-6
-3
0
2
2
1
-3
-9
-17
-27
-36
-44
-49
-49
-45
-36
-23
-9
4
16
23
26
24
19
12
4
-3
-8
-10
-10
-7
-4
1
5
10
14
18
21
24
25
25
24
22
19
17
16
17
21
27
36
46
55
64
69
72
71
69
64
60
57
56
57
60
64
68
71
73
73
71
68
64
60
57
53
50
47
44
40
36
31
25
20
14
9
4
-1
-6
-10
-14
-18
-20
-21
-20
-17
-14
-9
-5
-3
-2
-4
-8
-14
-21
-27
-31
-34
-33
-31
-27
-22
-17
-13
-11
-11
-12
-14
-16
-17
-18
-19
-19
-18
-18
-18
-19
-20
-21
-21
-22
-21
-20
-19
-18
-17
-17
-17
-18
-18
-19
-20
-21
-21
-22
-23
-24
-24
-24
-23
-21
-18
-13
-8
-2
2
6
7
6
3
-2
-8
-15
-21
-25
-28
-29
-28
-26
-23
-19
-16
-14
-12
-10
-10
-10
-10
-11
-12
-14
-16
-18
-20
-20
-20
-17
-14
-9
-4
1
5
8
8
7
5
2
-1
-3
-4
-3
-1
2
5
7
8
8
6
3
-1
-6
-9
-13
-15
-16
-16
-15
-15
-14
-14
-14
-15
-17
-19
-21
-24
-26
-29
-30
-31
-31
-30
-28
-26
-23
-21
-19
-17
-17
-18
-20
-23
-26
-28
-31
-32
-31
-28
-23
-15
-4
11
29
49
69
89
106
119
127
128
123
113
98
81
62
44
28
14
2
-6
-12
-16
-19
-20
-21
-21
-21
-20
-20
-19
-18
-18
-17
-17
-18
-18
-19
-20
-21
-22
-24
-25
-27
-29
-30
-31
-30
-29
-26
-23
-20
-17
-15
-15
-15
-15
-16
-17
-17
-16
-14
-11
-8
-5
-4
-3
-4
-7
-11
-15
-19
-23
-25
-25
-24
-21
-17
-12
-7
-2
2
6
8
9
9
8
6
4
2
0
0
2
4
8
13
17
20
22
22
21
20
20
22
26
32
40
49
57
63
66
65
62
58
53
51
51
55
61
70
79
86
90
91
88
83
75
68
62
58
55
54
53
50
46
40
32
22
13
5
-1
-4
-5
-5
-4
-4
-5
-7
-11
-15
-19
-22
-23
-22
-20
-17
-15
-13
-12
-11
-12
-13
-14
-15
-16
-17
-18
-19
-20
-21
-21
-20
-17
-13
-8
-3
0
2
1
-3
-8
-14
-20
-25
-29
-30
-29
-27
-25
-22
-19
-16
-13
-11
-8
-6
-3
-2
-1
-2
-5
-9
-14
-20
-25
-28
-30
-28
-24
-18
-11
-3
3
7
9
7
2
-4
-12
-19
-24
-27
-27
-24
-20
-14
-8
-4
-2
-3
-5
-10
-14
-18
-21
-22
-20
-18
-14
-11
-9
-8
-8
-7
-7
-4
-1
4
10
15
19
21
20
17
11
5
-1
-6
-9
-10
-10
-10
-8
-7
-5
-4
-2
0
2
4
5
4
1
-4
-12
-21
-30
-36
-40
-40
-36
-29
-20
-11
-4
1
2
0
-4
-10
-16
-21
-24
-27
-29
-30
-31
-33
-34
-35
-36
-35
-32
-27
-20
-11
1
14
29
45
60
73
84
90
90
84
72
55
36
17
0
-12
-20
-22
-21
-17
-13
-10
-10
-13
-17
-23
-28
-32
-32
-29
-24
-19
-14
-11
-10
-12
-15
-19
-23
-25
-26
-26
-24
-23
-22
-21
-22
-23
-24
-24
-22
-19
-16
-12
-10
-10
-12
-17
-22
-28
-31
-32
-29
-24
-16
-7
0
4
5
3
-1
-6
-11
-13
-13
-10
-5
1
6
9
10
9
6
2
-1
-2
-1
2
6
11
15
18
18
17
15
12
12
13
17
24
33
43
53
60
65
67
66
63
59
56
54
55
57
61
67
72
76
79
80
79
76
72
68
64
59
54
49
44
39
34
30
26
23
20
18
16
14
12
8
4
-1
-6
-12
-17
-22
-26
-29
-30
-30
-29
-26
-22
-17
-11
-6
-1
2
3
3
0
-4
-9
-14
-19
-23
-25
-27
-27
-27
-26
-25
-23
-20
-17
-14
-11
-9
-8
-8
-11
-15
-19
-24
-26
-27
-24
-19
-12
-6
-1
2
2
-2
-7
-13
-17
-20
-19
-16
-12
-9
-7
-9
-13
-20
-28
-34
-38
-36
-31
-21
-10
0
7
10
9
3
-6
-16
-24
-30
-32
-30
-25
-17
-9
-1
5
10
11
11
8
4
-1
-7
-12
-16
-18
-17
-14
-8
0
8
16
23
26
26
23
17
10
2
-6
-11
-15
-17
-17
-15
-13
-11
-9
-7
-7
-7
-9
-12
-17
-22
-27
-32
-35
-35
-33
-29
-23
-16
-11
-7
-6
-8
-12
-17
-22
-26
-28
-28
-26
-24
-21
-20
-20
-21
-23
-25
-25
-23
-18
-9
3
18
36
54
73
91
105
116
120
119
110
96
76
54
31
10
-7
-18
-24
-25
-22
-18
-13
-10
-9
-11
-14
-17
-20
-22
-21
-19
-16
-13
-10
-9
-11
-14
-18
-23
-27
-30
-32
-31
-28
-25
-21
-18
-16
-16
-17
-20
-23
-26
-27
-28
-26
-23
-19
-15
-11
-7
-5
-5
-5
-6
-7
-8
-9
-10
-10
-11
-12
-13
-15
-16
-17
-17
-15
-12
-9
-4
0
3
6
7
6
4
2
0
-2
-2
0
4
10
16
23
29
34
37
37
36
34
31
27
25
25
26
31
37
45
53
61
68
74
77
78
77
76
75
74
73
73
73
71
69
64
58
50
42
33
26
21
18
16
17
17
18
18
16
13
10
6
1
-2
-5
-7
-8
-10
-11
-13
-15
-18
-20
-22
-23
-22
-21
-18
-15
-12
-10
-8
-8
-9
-10
-12
-14
-15
-16
-15
-14
-13
-12
-12
-12
-14
-16
-20
-23
-27
-29
-31
-31
-30
-28
-25
-21
-19
-17
-17
-17
-19
-20
-21
-20
-19
-15
-12
-8
-5
-3
-4
-6
-10
-14
-17
-18
-17
-13
-9
-4
0
2
0
-4
-11
-18
-25
-29
-30
-27
-21
-14
-6
0
4
4
2
-3
-9
-14
-18
-20
-19
-15
-10
-4
1
5
7
7
6
4
1
-1
-3
-3
-3
-1
0
1
2
1
0
-3
-5
-8
-10
-12
-14
-15
-16
-17
-18
-20
-21
-22
-23
-23
-24
-24
-25
-25
-26
-26
-26
-26
-25
-24
-23
-22
-22
-21
-22
-23
-25
-28
-31
-35
-38
-40
-40
-36
-29
-17
0
22
46
71
96
118
134
143
146
141
129
113
94
74
54
36
19
4
-8
-19
-28
-34
-37
-37
-35
-29
-22
-14
-6
-2
0
-2
-8
-17
-26
-35
-42
-45
-44
-40
-33
-24
-16
-8
-3
-1
-2
-6
-12
-18
-24
-28
-31
-31
-29
-25
-21
-16
-12
-10
-11
-13
-16
-20
-23
-25
-25
-23
-20
-16
-12
-8
-5
-4
-4
-5
-6
-7
-7
-7
-6
-4
-2
0
3
5
8
10
12
13
13
13
13
12
11
10
9
10
11
13
15
19
23
28
33
39
44
50
54
58
60
62
62
61
60
60
60
61
63
65
66
65
64
61
58
55
52
51
51
52
53
53
50
45
37
27
16
5
-3
-9
-11
-11
-9
-7
-6
-7
-11
-16
-23
-29
-34
-37
-37
-34
-30
-26
-21
-17
-15
-14
-13
-13
-12
-11
-9
-8
-7
-7
-8
-9
-10
-11
-11
-12
-12
-12
-13
-15
-18
-23
-28
-33
-36
-37
-35
-32
-26
-20
-14
-9
-6
-5
-6
-8
-11
-14
-17
-19
-20
-20
-19
-17
-15
-11
-8
-6
-4
-4
-5
-8
-11
-15
-19
-22
-23
-22
-20
-17
-15
-14
-13
-14
-15
-16
-15
-13
-8
-1
5
11
14
14
10
3
-6
-13
-19
-20
-18
-11
-3
6
12
15
13
8
0
-9
-15
-18
-16
-11
-2
6
14
18
17
13
4
-6
-16
-25
-31
-34
-35
-33
-31
-28
-26
-24
-23
-23
-22
-21
-20
-18
-18
-18
-19
-21
-24
-26
-28
-29
-28
-27
-25
-24
-24
-26
-29
-32
-35
-36
-33
-25
-12
7
30
54
79
102
121
134
141
142
138
129
115
99
81
62
43
26
12
1
-5
-8
-7
-4
-1
1
0
-4
-13
-24
-35
-45
-52
-54
-50
-42
-31
-20
-10
-3
0
-1
-5
-12
-18
-24
-27
-29
-30
-29
-27
-26
-24
-22
-21
-19
-18
-17
-16
-17
-18
-20
-22
-23
-24
-23
-20
-16
-12
-8
-4
-3
-3
-5
-9
-12
-16
-18
-19
-18
-16
-14
-11
-9
-7
-5
-4
-2
0
3
7
11
15
19
22
24
25
25
25
25
25
26
28
31
34
38
41
43
45
46
47
48
49
51
54
58
61
65
68
70
71
71
70
68
65
62
58
54
49
44
38
33
27
23
19
16
14
13
12
11
10
7
3
-2
-8
-14
-20
-24
-26
-26
-25
-22
-19
-16
-14
-14
-14
-16
-18
-20
-21
-20
-18
-15
-12
-9
-7
-6
-8
-12
-16
-22
-26
-29
-30
-29
-26
-23
-19
-16
-14
-13
-13
-14
-15
-15
-15
-14
-14
-13
-14
-15
-17
-20
-21
-22
-22
-20
-17
-14
-11
-9
-9
-9
-9
-10
-10
-9
-7
-5
-4
-4
-5
-8
-11
-15
-18
-20
-20
-19
-17
-16
-15
-17
-20
-23
-26
-27
-25
-21
-14
-5
2
7
9
6
0
-9
-17
-23
-25
-23
-18
-9
0
8
14
17
17
14
11
8
6
6
7
9
10
10
8
5
0
-5
-10
-15
-18
-19
-20
-20
-18
-17
-16
-15
-15
-16
-17
-19
-22
-24
-27
-29
-30
-29
-28
-26
-23
-21
-20
-20
-21
-23
-25
-26
-27
-28
-28
-28
-29
-30
-30
-28
-24
-17
-5
12
31
53
74
93
109
119
123
123
118
111
101
90
77
64
49
32
15
-2
-17
-29
-37
-41
-39
-35
-28
-21
-15
-11
-9
-10
-13
-15
-17
-18
-17
-16
-15
-16
-18
-21
-26
-31
-35
-37
-37
-34
-29
-24
-18
-13
-11
-10
-12
-15
-19
-22
-25
-27
-27
-26
-25
-23
-20
-18
-15
-12
-8
-5
-1
2
4
4
2
-1
-6
-12
-17
-20
-21
-18
-12
-3
7
17
25
30
30
26
18
8
-2
-10
-14
-14
-10
-2
8
18
26
32
35
36
36
36
37
41
46
53
60
66
70
71
70
68
65
64
64
67
71
75
78
79
77
72
64
56
49
43
39
36
34
32
29
24
18
11
5
2
0
2
5
9
12
13
10
5
-3
-12
-20
-26
-29
-29
-27
-24
-21
-18
-16
-15
-15
-14
-12
-10
-7
-5
-4
-5
-8
-13
-18
-24
-28
-30
-29
-26
-22
-17
-12
-9
-8
-8
-9
-12
-14
-16
-18
-20
-21
-21
-22
-22
-22
-21
-20
-18
-16
-13
-10
-7
-6
-5
-5
-7
-9
-12
-15
-17
-19
-20
-19
-17
-14
-11
-7
-5
-4
-5
-8
-12
-16
-20
-23
-23
-22
-18
-14
-10
-8
-7
-8
-10
-13
-16
-18
-17
-14
-10
-4
2
6
9
10
9
7
4
2
1
1
1
3
4
5
6
7
7
7
6
5
2
-2
-6
-12
-18
-23
-26
-27
-26
-23
-18
-12
-8
-5
-6
-9
-14
-20
-26
-30
-33
-32
-29
-25
-21
-17
-15
-15
-17
-19
-22
-25
-27
-29
-30
-30
-32
-33
-34
-33
-30
-23
-11
7
28
53
78
102
122
135
142
140
132
118
100
78
56
34
14
-3
-18
-28
-34
-35
-32
-26
-18
-10
-3
1
1
-4
-11
-20
-30
-38
-43
-45
-42
-37
-30
-22
-15
-10
-7
-7
-9
-12
-15
-19
-22
-25
-27
-27
-27
-25
-22
-19
-14
-10
-7
-5
-5
-6
-9
-13
-16
-19
-20
-20
-19
-16
-13
-11
-9
-7
-7
-6
-5
-4
-2
0
1
2
1
-2
-5
-9
-13
-16
-16
-14
-10
-3
5
14
21
27
32
34
34
34
32
31
30
30
32
36
41
48
56
64
71
76
79
79
76
71
64
57
52
48
48
50
54
59
64
67
67
65
60
53
46
38
30
24
19
15
11
9
7
5
4
3
2
2
0
-2
-5
-9
-15
-20
-25
-28
-29
-27
-24
-20
-15
-11
-8
-7
-7
-9
-12
-15
-17
-19
-19
-18
-17
-16
-14
-13
-12
-11
-11
-11
-12
-13
-15
-18
-21
-24
-27
-29
-32
-34
-34
-34
-32
-30
-26
-22
-17
-13
-10
-8
-7
-8
-10
-12
-14
-16
-16
-15
-13
-11
-9
-8
-8
-8
-10
-11
-13
-14
-14
-14
-14
-14
-15
-17
-19
-22
-24
-26
-28
-28
-28
-27
-25
-24
-22
-21
-19
-17
-14
-11
-7
-3
1
5
8
11
13
14
14
13
11
8
6
3
0
-2
-3
-3
-3
-3
-4
-5
-8
-12
-17
-22
-27
-30
-31
-29
-26
-21
-16
-13
-11
-12
-15
-21
-27
-33
-38
-39
-38
-34
-27
-20
-14
-10
-10
-12
-18
-26
-34
-42
-47
-50
-50
-46
-40
-32
-21
-9
4
20
37
57
77
97
115
130
140
144
142
132
118
99
77
55
34
15
0
-12
-20
-24
-26
-24
-21
-18
-14
-11
-10
-11
-14
-18
-23
-28
-31
-32
-31
-29
-25
-22
-19
-19
-21
-25
-29
-34
-38
-38
-36
-32
-25
-18
-11
-7
-5
-5
-8
-13
-17
-21
-24
-26
-26
-25
-24
-23
-22
-21
-18
-15
-11
-6
-2
2
5
5
3
-1
-5
-10
-13
-15
-14
-11
-7
-4
0
2
2
1
-1
-2
-3
-2
1
6
12
19
26
31
35
37
36
35
32
30
28
28
30
34
40
47
56
63
70
74
76
76
73
70
66
62
60
60
60
61
61
60
57
52
44
36
28
21
15
13
12
13
15
16
15
12
7
0
-8
-16
-23
-28
-29
-27
-23
-17
-10
-4
1
2
0
-5
-12
-21
-30
-37
-41
-42
-39
-33
-25
-17
-11
-6
-5
-7
-11
-17
-22
-27
-30
-30
-29
-25
-22
-18
-16
-14
-14
-14
-15
-16
-17
-17
-17
-17
-17
-17
-18
-19
-20
-21
-21
-20
-18
-15
-11
-7
-4
-2
-2
-4
-7
-11
-15
-19
-22
-23
-24
-23
-21
-19
-16
-14
-11
-8
-5
-2
-1
0
-1
-4
-8
-13
-19
-23
-26
-25
-22
-16
-9
-1
5
9
10
8
4
-1
-6
-9
-9
-7
-2
3
7
10
11
8
4
-1
-5
-8
-9
-8
-5
-2
1
2
1
-3
-10
-17
-24
-30
-34
-35
-34
-31
-28
-24
-21
-20
-19
-18
-18
-17
-16
-14
-12
-10
-10
-10
-13
-16
-20
-24
-27
-30
-31
-31
-29
-26
-21
-13
-2
14
33
57
82
107
129
145
152
150
138
118
92
64
38
16
1
-7
-9
-6
-1
3
4
2
-3
-10
-18
-24
-27
-27
-24
-20
-15
-11
-10
-11
-14
-19
-23
-26
-26
-24
-20
-15
-11
-8
-7
-10
-14
-20
-26
-31
-33
-32
-29
-24
-18
-12
-8
-5
-4
-4
-5
-5
-5
-4
-3
-2
-2
-5
-9
-16
-22
-29
-33
-34
-31
-24
-15
-4
6
15
20
23
22
19
14
9
4
1
-2
-2
-2
0
4
8
14
22
31
39
48
54
57
57
54
48
41
34
29
27
29
34
41
50
59
66
72
76
78
78
78
77
76
75
73
71
67
63
58
52
47
42
37
32
27
22
18
13
9
5
2
-2
-5
-8
-12
-17
-22
-26
-29
-29
-28
-24
-18
-12
-6
-2
-1
-2
-6
-11
-16
-20
-21
-20
-17
-14
-11
-10
-11
-13
-17
-21
-23
-23
-22
-19
-15
-13
-13
-15
-20
-25
-30
-32
-31
-27
-19
-11
-2
4
6
4
-1
-8
-15
-21
-24
-23
-20
-16
-12
-9
-9
-10
-13
-16
-19
-20
-20
-19
-18
-16
-14
-14
-14
-15
-16
-17
-17
-16
-15
-14
-13
-13
-14
-15
-15
-14
-12
-9
-5
-1
2
3
3
0
-4
-9
-14
-19
-22
-23
-23
-21
-17
-13
-8
-2
3
9
13
17
19
19
17
14
9
4
-1
-5
-7
-7
-5
-3
-1
0
0
-3
-8
-14
-21
-27
-32
-35
-36
-35
-33
-29
-26
-24
-23
-23
-24
-25
-26
-26
-24
-22
-18
-15
-13
-12
-13
-17
-22
-28
-34
-39
-40
-38
-32
-22
-8
8
27
45
63
80
94
105
113
116
115
109
99
85
68
50
32
17
4
-6
-12
-16
-17
-18
-19
-21
-23
-25
-26
-26
-23
-19
-15
-11
-8
-8
-12
-18
-25
-32
-37
-39
-38
-34
-28
-21
-17
-14
-15
-18
-22
-26
-28
-27
-23
-18
-12
-7
-5
-6
-10
-15
-21
-25
-27
-25
-20
-13
-6
0
3
3
0
-4
-9
-14
-16
-17
-15
-12
-8
-4
0
3
5
7
8
8
8
8
7
7
7
9
12
16
22
28
33
37
39
39
36
32
29
26
25
27
30
35
40
45
49
51
53
55
58
62
68
74
80
85
87
86
81
74
65
55
47
41
39
39
40
43
44
44
41
35
28
19
10
3
-2
-6
-7
-7
-6
-6
-7
-10
-13
-18
-23
-27
-29
-30
-30
-28
-25
-22
-20
-19
-18
-19
-19
-19
-19
-17
-15
-11
-7
-4
-1
0
-1
-3
-7
-13
-19
-24
-30
-34
-36
-36
-34
-30
-25
-19
-13
-8
-5
-4
-4
-7
-11
-14
-17
-19
-19
-17
-14
-11
-7
-4
-3
-3
-5
-8
-13
-18
-23
-27
-29
-30
-28
-25
-21
-16
-12
-9
-7
-8
-10
-13
-16
-18
-19
-19
-17
-14
-11
-10
-10
-11
-15
-19
-22
-24
-24
-20
-15
-7
1
7
12
13
11
6
-1
-8
-14
-18
-19
-17
-12
-5
3
10
16
19
20
18
14
9
3
-3
-9
-13
-16
-19
-20
-21
-22
-23
-25
-27
-29
-30
-31
-32
-31
-30
-28
-25
-23
-20
-19
-18
-18
-19
-20
-21
-22
-21
-19
-17
-14
-12
-12
-14
-18
-25
-32
-37
-39
-35
-23
-4
22
53
84
112
133
144
144
132
111
83
51
20
-6
-26
-39
-43
-41
-34
-25
-15
-7
-2
1
1
-2
-5
-9
-13
-15
-17
-17
-17
-16
-15
-15
-14
-14
-15
-16
-17
-19
-21
-23
-26
-29
-31
-34
-36
-38
-38
-37
-35
-32
-27
-23
-18
-15
-12
-11
-11
-12
-14
-16
-18
-19
-19
-17
-15
-11
-7
-4
-1
0
-1
-3
-6
-9
-11
-12
-11
-9
-5
-1
4
7
10
12
12
12
11
9
9
9
10
12
14
18
22
26
31
36
41
46
49
51
53
53
53
54
55
57
61
66
71
76
81
84
85
83
80
76
71
66
62
59
56
54
53
51
49
47
44
40
36
32
26
20
14
6
-2
-10
-17
-23
-26
-27
-26
-23
-20
-17
-15
-16
-18
-21
-25
-29
-31
-31
-30
-26
-22
-18
-14
-11
-9
-8
-7
-6
-5
-4
-3
-3
-4
-5
-8
-11
-15
-17
-18
-18
-17
-15
-13
-12
-13
-16
-20
-24
-27
-30
-30
-29
-26
-22
-19
-18
-19
-21
-24
-28
-30
-31
-29
-26
-20
-14
-9
-6
-4
-5
-8
-12
-16
-20
-23
-25
-24
-22
-19
-16
-13
-11
-10
-11
-13
-15
-18
-21
-22
-22
-20
-16
-11
-7
-3
-1
0
-2
-4
-6
-8
-8
-5
-1
4
10
14
16
16
13
8
3
-3
-7
-10
-11
-10
-10
-9
-10
-11
-14
-17
-20
-22
-22
-20
-17
-13
-10
-7
-7
-8
-12
-17
-22
-26
-30
-32
-32
-32
-30
-29
-27
-26
-26
-25
-24
-23
-22
-21
-20
-20
-21
-23
-26
-29
-31
-30
-26
-16
-1
18
42
68
93
115
132
142
143
137
125
107
87
66
46
29
16
5
-3
-10
-15
-20
-24
-28
-31
-32
-32
-31
-28
-25
-23
-22
-23
-25
-28
-31
-34
-35
-34
-31
-27
-23
-19
-16
-15
-15
-17
-20
-22
-24
-24
-23
-21
-18
-14
-11
-8
-7
-7
-8
-10
-12
-14
-15
-16
-15
-13
-11
-8
-5
-3
-2
-2
-4
-6
-8
-10
-11
-11
-8
-4
1
8
14
19
22
24
23
20
16
11
7
4
2
2
3
6
9
13
16
19
21
23
25
28
33
39
46
55
63
71
77
80
81
78
74
69
65
61
60
61
63
66
68
70
70
68
64
59
53
47
41
35
29
24
18
13
9
5
1
-1
-3
-4
-5
-6
-7
-9
-12
-14
-16
-16
-16
-13
-10
-6
-3
0
0
-2
-7
-13
-20
-27
-33
-37
-39
-38
-35
-31
-26
-22
-18
-15
-13
-11
-11
-10
-10
-10
-10
-11
-13
-15
-18
-20
-21
-22
-21
-19
-16
-13
-10
-7
-6
-6
-6
-6
-7
-7
-7
-6
-7
-8
-10
-13
-17
-21
-23
-24
-23
-20
-15
-11
-6
-4
-4
-7
-11
-16
-21
-24
-25
-24
-19
-13
-6
1
6
9
10
7
3
-4
-10
-17
-21
-22
-21
-16
-9
0
9
17
21
22
18
12
3
-5
-12
-16
-17
-15
-10
-4
1
5
7
6
3
0
-4
-7
-9
-11
-13
-16
-19
-23
-26
-29
-30
-30
-27
-23
-19
-16
-14
-15
-18
-22
-26
-29
-29
-27
-23
-18
-13
-9
-8
-11
-16
-23
-30
-36
-38
-35
-27
-14
5
27
52
78
101
122
137
146
147
140
125
105
81
55
31
10
-6
-16
-21
-22
-20
-18
-15
-15
-15
-17
-19
-21
-22
-22
-21
-18
-16
-14
-14
-15
-18
-21
-25
-29
-32
-33
-33
-31
-27
-23
-18
-14
-11
-9
-10
-12
-15
-19
-22
-24
-24
-21
-18
-13
-10
-7
-7
-8
-11
-14
-17
-18
-16
-12
-7
-1
3
6
7
6
4
1
-1
-2
-1
1
3
4
4
3
1
-1
-3
-3
-1
4
10
16
22
27
30
31
30
28
27
27
29
32
38
44
50
55
59
62
63
63
62
63
63
65
67
69
71
72
72
71
68
65
61
56
52
48
44
40
38
35
32
30
27
24
21
18
15
12
8
4
0
-5
-9
-13
-17
-20
-22
-23
-22
-21
-20
-18
-17
-17
-18
-20
-23
-26
-28
-30
-30
-28
-26
-23
-20
-17
-16
-17
-19
-23
-26
-29
-31
-31
-29
-24
-18
-11
-4
1
4
5
4
1
-4
-9
-13
-17
-19
-20
-21
-20
-20
-21
-22
-23
-25
-27
-28
-28
-27
-25
-22
-20
-17
-16
-17
-18
-20
-22
-23
-22
-19
-15
-9
-3
2
5
6
3
-2
-8
-15
-22
-26
-28
-28
-25
-22
-18
-15
-13
-11
-11
-10
-9
-6
-3
0
3
6
7
6
3
0
-3
-5
-6
-4
-1
4
9
12
13
10
5
-2
-11
-19
-25
-29
-31
-31
-30
-29
-30
-31
-34
-35
-36
-34
-30
-24
-16
-10
-6
-6
-10
-18
-28
-38
-47
-52
-52
-48
-41
-33
-25
-20
-18
-19
-21
-23
-22
-16
-4
13
34
57
78
97
110
117
118
115
108
99
88
76
62
47
30
12
-6
-22
-35
-43
-46
-43
-37
-28
-20
-14
-12
-15
-20
-28
-35
-40
-42
-39
-33
-24
-15
-7
-3
-1
-4
-9
-16
-23
-29
-34
-36
-35
-33
-29
-25
-21
-18
-17
-16
-17
-18
-19
-20
-20
-20
-19
-17
-15
-14
-14
-14
-16
-18
-20
-20
-19
-16
-10
-4
4
10
15
17
16
12
6
-1
-7
-11
-12
-11
-6
0
7
13
18
20
21
20
19
18
18
20
24
28
33
38
41
44
44
44
44
45
46
50
55
61
68
75
81
85
86
86
83
79
74
69
64
59
55
51
47
44
42
39
36
33
30
26
22
18
13
7
1
-5
-10
-16
-20
-23
-25
-26
-25
-24
-22
-20
-18
-15
-12
-10
-8
-7
-8
-9
-12
-16
-21
-26
-30
-33
-34
-32
-30
-26
-21
-17
-14
-13
-13
-14
-16
-19
-21
-23
-23
-22
-20
-16
-12
-8
-5
-4
-4
-7
-11
-16
-21
-25
-27
-27
-25
-20
-15
-10
-6
-5
-6
-9
-13
-19
-23
-26
-27
-27
-25
-23
-22
-21
-20
-20
-19
-17
-14
-10
-5
-1
2
3
2
-1
-6
-11
-16
-20
-21
-21
-19
-15
-9
-3
4
11
17
23
28
30
30
27
20
10
-2
-13
-22
-28
-30
-27
-19
-10
0
9
13
13
8
-1
-12
-23
-32
-39
-42
-42
-40
-35
-30
-25
-20
-16
-12
-9
-6
-5
-7
-11
-17
-26
-35
-43
-49
-51
-49
-43
-34
-25
-16
-9
-5
-3
-3
-1
4
14
29
49
72
94
113
126
132
129
118
103
84
65
47
32
20
11
3
-5
-12
-19
-25
-29
-32
-33
-31
-28
-24
-20
-17
-16
-16
-18
-21
-25
-28
-31
-34
-36
-37
-38
-37
-35
-31
-25
-19
-12
-7
-4
-3
-6
-11
-17
-23
-28
-30
-28
-24
-18
-11
-5
0
2
2
0
-3
-6
-9
-10
-11
-12
-12
-13
-14
-16
-17
-17
-15
-12
-7
-1
4
7
9
8
5
2
-1
-3
-2
1
7
13
19
23
26
26
24
22
20
21
25
32
40
48
56
60
62
60
57
53
51
51
54
60
68
75
81
85
84
81
74
67
59
53
48
46
45
45
46
46
46
45
43
39
34
27
18
7
-4
-14
-23
-29
-32
-31
-27
-21
-15
-11
-9
-10
-14
-19
-25
-29
-32
-32
-30
-26
-22
-18
-15
-13
-13
-13
-14
-15
-15
-15
-15
-15
-15
-15
-16
-17
-18
-19
-18
-18
-16
-15
-14
-13
-14
-15
-17
-19
-21
-23
-24
-23
-23
-21
-20
-18
-16
-15
-14
-13
-12
-11
-9
-8
-6
-5
-4
-4
-6
-8
-12
-16
-19
-22
-24
-24
-23
-20
-17
-14
-11
-9
-8
-7
-6
-6
-6
-6
-6
-6
-7
-8
-9
-9
-9
-8
-6
-3
1
5
8
11
13
13
12
10
6
3
-1
-5
-9
-13
-16
-19
-22
-23
-24
-23
-21
-19
-17
-15
-14
-15
-16
-18
-20
-21
-21
-21
-19
-17
-16
-16
-17
-20
-24
-28
-32
-35
-36
-35
-33
-30
-27
-24
-22
-21
-19
-15
-9
2
16
35
56
79
100
119
133
140
141
135
123
107
87
67
46
26
8
-6
-18
-25
-29
-29
-27
-22
-17
-13
-10
-9
-10
-14
-19
-24
-29
-33
-35
-34
-31
-25
-19
-13
-7
-4
-2
-2
-5
-9
-15
-20
-24
-27
-29
-28
-25
-22
-18
-15
-12
-11
-11
-12
-14
-17
-19
-22
-23
-24
-24
-22
-20
-17
-13
-9
-5
-1
3
6
8
10
10
10
8
6
4
1
-1
-4
-6
-7
-6
-5
-2
1
5
10
15
19
23
27
29
31
32
32
33
33
34
36
38
41
45
48
52
56
58
60
61
62
62
63
63
64
66
67
69
69
69
67
64
59
52
45
37
29
22
16
11
8
6
4
2
0
-3
-7
-11
-14
-16
-16
-14
-11
-7
-4
-3
-3
-7
-13
-20
-27
-33
-37
-38
-36
-33
-29
-25
-21
-19
-18
-18
-18
-18
-17
-15
-14
-13
-14
-16
-19
-22
-25
-27
-28
-27
-25
-22
-19
-17
-16
-17
-18
-19
-20
-19
-16
-13
-9
-6
-4
-5
-8
-14
-20
-25
-29
-30
-28
-24
-19
-13
-9
-6
-6
-7
-9
-12
-15
-16
-17
-16
-15
-13
-12
-11
-11
-12
-12
-11
-10
-8
-5
-3
-1
0
0
-1
-3
-4
-6
-6
-6
-4
-2
1
4
6
8
7
6
2
-2
-7
-12
-16
-19
-21
-21
-19
-17
-14
-12
-10
-10
-10
-10
-11
-11
-11
-10
-10
-9
-9
-10
-13
-18
-23
-29
-34
-38
-40
-39
-36
-32
-26
-22
-18
-17
-19
-22
-28
-33
-38
-40
-38
-31
-19
-1
20
45
70
93
112
126
132
130
122
108
90
71
53
37
25
15
7
1
-5
-11
-18
-24
-29
-32
-33
-31
-28
-24
-19
-16
-15
-15
-18
-22
-26
-30
-33
-34
-34
-32
-30
-27
-24
-21
-19
-18
-17
-16
-16
-17
-17
-18
-18
-17
-16
-14
-12
-10
-9
-9
-9
-12
-15
-19
-22
-25
-26
-26
-24
-21
-17
-14
-10
-7
-5
-4
-2
-1
1
3
6
9
11
12
12
11
9
6
2
0
-1
-1
2
6
12
18
24
29
33
36
38
40
42
45
49
53
57
61
63
64
64
62
61
60
61
63
67
72
76
79
79
77
71
63
55
46
40
36
35
35
36
37
36
33
27
20
12
5
-2
-6
-9
-10
-11
-11
-12
-14
-16
-18
-20
-21
-21
-20
-19
-18
-17
-18
-19
-22
-25
-27
-28
-26
-22
-17
-10
-4
1
3
3
0
-6
-12
-18
-23
-26
-28
-29
-29
-28
-28
-28
-28
-28
-29
-29
-29
-28
-28
-27
-26
-25
-25
-24
-23
-21
-19
-17
-15
-12
-10
-8
-8
-8
-10
-12
-15
-18
-22
-24
-24
-23
-20
-15
-8
-2
4
9
11
11
8
3
-2
-7
-11
-12
-11
-8
-4
0
2
2
1
-3
-7
-10
-11
-9
-4
3
12
21
29
33
34
31
24
15
5
-5
-13
-19
-23
-24
-23
-21
-19
-16
-15
-15
-16
-17
-20
-23
-26
-28
-29
-29
-28
-26
-24
-23
-22
-23
-25
-28
-32
-35
-36
-37
-35
-32
-29
-27
-26
-26
-29
-32
-34
-33
-28
-16
2
25
52
80
106
127
141
146
144
133
117
96
73
50
28
9
-8
-22
-33
-40
-44
-45
-43
-39
-35
-30
-27
-24
-24
-25
-27
-29
-31
-33
-33
-32
-31
-30
-29
-29
-30
-32
-34
-35
-36
-36
-35
-34
-31
-28
-25
-22
-19
-16
-14
-12
-11
-11
-11
-12
-13
-14
-15
-15
-15
-15
-14
-14
-13
-14
-14
-15
-15
-14
-12
-9
-6
-2
1
3
4
3
2
0
-2
-2
-1
2
7
12
18
24
27
30
31
30
30
29
30
33
37
43
51
58
65
71
73
73
71
67
62
59
57
59
63
70
78
84
89
91
90
85
80
74
69
66
66
68
70
72
72
69
63
53
42
31
20
11
4
0
-2
-2
-3
-3
-4
-5
-7
-9
-12
-14
-17
-18
-20
-21
-21
-20
-20
-18
-17
-17
-18
-19
-22
-25
-29
-31
-32
-32
-30
-26
-23
-20
-18
-18
-19
-22
-24
-27
-27
-26
-23
-18
-13
-8
-4
-1
0
-1
-3
-6
-9
-12
-14
-16
-18
-20
-21
-22
-22
-23
-23
-23
-23
-24
-25
-26
-27
-28
-28
-27
-25
-21
-16
-10
-5
1
4
6
5
2
-2
-6
-10
-12
-12
-11
-8
-4
0
4
7
8
9
9
8
8
7
7
6
5
4
1
-2
-6
-11
-14
-17
-20
-21
-21
-21
-21
-21
-22
-23
-24
-25
-25
-26
-25
-25
-25
-26
-27
-28
-30
-33
-34
-35
-35
-34
-32
-29
-27
-25
-24
-24
-24
-25
-26
-27
-29
-30
-30
-29
-25
-19
-8
7
27
51
76
101
123
140
149
150
141
125
104
79
54
30
9
-7
-19
-26
-29
-29
-27
-25
-22
-21
-20
-21
-24
-27
-30
-33
-35
-36
-35
-33
-31
-29
-28
-28
-29
-31
-33
-35
-35
-34
-32
-29
-27
-25
-24
-25
-26
-27
-27
-26
-24
-21
-18
-16
-15
-15
-17
-20
-22
-23
-23
-22
-21
-19
-18
-19
-20
-22
-23
-23
-21
-16
-9
-2
5
10
12
11
9
5
3
2
4
9
15
21
27
30
29
27
22
17
14
13
15
20
28
37
45
51
54
55
54
51
48
46
45
45
46
49
52
56
61
66
72
78
84
88
90
89
85
76
65
52
39
27
17
11
7
5
5
6
6
5
4
2
1
0
0
0
-1
-3
-7
-11
-17
-23
-28
-30
-31
-28
-24
-19
-14
-10
-8
-8
-9
-10
-11
-11
-10
-9
-7
-7
-8
-12
-18
-26
-33
-39
-42
-41
-37
-29
-19
-9
-1
4
4
1
-5
-12
-19
-25
-29
-30
-29
-27
-24
-21
-19
-19
-19
-19
-18
-17
-14
-10
-5
-1
1
1
-2
-8
-15
-22
-28
-32
-33
-31
-26
-19
-11
-3
3
7
8
7
5
1
-2
-5
-7
-8
-7
-6
-4
-1
2
5
8
10
12
13
13
12
9
4
-2
-8
-15
-21
-25
-28
-29
-28
-25
-21
-17
-14
-12
-12
-14
-18
-23
-27
-31
-33
-33
-30
-27
-22
-18
-15
-14
-16
-19
-24
-28
-32
-35
-37
-36
-35
-32
-29
-26
-22
-17
-10
0
14
31
50
71
91
108
121
128
128
121
107
88
65
40
16
-7
-25
-39
-47
-50
-48
-42
-34
-25
-16
-9
-5
-3
-5
-8
-14
-20
-26
-30
-33
-34
-33
-31
-29
-26
-24
-24
-24
-25
-27
-29
-31
-31
-30
-27
-23
-18
-13
-9
-6
-6
-8
-12
-16
-20
-24
-25
-25
-24
-21
-18
-15
-14
-14
-14
-15
-16
-16
-15
-12
-8
-4
-1
2
3
2
0
-3
-6
-7
-6
-3
3
10
17
24
30
33
33
30
26
21
16
13
13
15
21
28
38
47
55
62
67
69
69
69
68
68
69
71
73
75
76
76
74
72
69
67
65
64
63
61
58
52
45
35
24
14
5
0
-2
-1
3
9
14
18
18
16
11
5
-3
-10
-16
-21
-23
-24
-23
-22
-19
-17
-15
-12
-11
-10
-10
-12
-14
-16
-18
-20
-22
-22
-22
-21
-21
-21
-23
-25
-28
-30
-33
-34
-33
-31
-27
-23
-19
-16
-14
-13
-14
-16
-18
-20
-21
-21
-20
-17
-15
-12
-10
-9
-9
-10
-12
-13
-15
-17
-18
-18
-17
-16
-13
-10
-7
-4
-1
2
3
2
0
-3
-7
-10
-13
-14
-13
-9
-3
4
12
19
25
29
29
28
24
18
12
7
1
-3
-7
-10
-13
-16
-19
-22
-24
-25
-25
-25
-24
-22
-22
-22
-23
-26
-28
-31
-33
-34
-33
-30
-25
-20
-14
-10
-7
-6
-6
-8
-12
-16
-21
-27
-33
-39
-44
-49
-53
-53
-49
-41
-27
-9
12
35
58
79
96
109
116
118
116
110
101
90
77
62
46
29
12
-5
-20
-33
-42
-47
-48
-46
-41
-34
-27
-22
-18
-16
-16
-17
-18
-19
-20
-21
-21
-22
-23
-25
-27
-28
-29
-28
-26
-22
-18
-14
-11
-10
-11
-15
-20
-27
-32
-36
-37
-35
-30
-24
-16
-9
-4
-1
-1
-3
-7
-11
-14
-16
-17
-16
-14
-10
-7
-3
-1
1
3
3
4
4
5
5
4
3
2
1
1
0
1
3
7
11
15
19
22
24
25
25
25
25
27
31
36
43
51
58
65
69
72
72
71
68
65
63
62
63
65
67
70
73
73
72
69
65
59
53
47
41
37
33
30
27
24
20
15
10
5
0
-6
-11
-15
-18
-20
-21
-22
-21
-19
-17
-14
-11
-9
-7
-7
-8
-10
-14
-18
-22
-26
-28
-29
-29
-26
-23
-18
-14
-10
-7
-6
-6
-7
-10
-14
-18
-22
-26
-29
-31
-33
-33
-32
-29
-26
-21
-17
-12
-9
-7
-7
-8
-11
-14
-18
-20
-21
-20
-18
-15
-13
-11
-12
-13
-16
-20
-22
-22
-20
-15
-9
-1
6
12
14
13
9
3
-3
-8
-10
-9
-5
1
7
11
13
12
9
3
-3
-8
-10
-10
-7
-3
2
5
6
4
-1
-8
-15
-21
-25
-26
-24
-21
-16
-13
-11
-12
-15
-20
-26
-31
-35
-37
-36
-32
-27
-21
-15
-10
-8
-8
-10
-15
-21
-26
-31
-34
-35
-34
-30
-25
-18
-11
-2
8
20
34
50
68
87
105
120
131
135
131
119
100
76
49
23
-1
-19
-32
-37
-38
-35
-30
-24
-20
-17
-16
-16
-16
-16
-16
-15
-14
-14
-16
-19
-24
-30
-37
-42
-46
-46
-43
-37
-29
-19
-9
-2
2
3
-1
-7
-15
-23
-31
-35
-37
-36
-33
-27
-22
-16
-12
-10
-9
-9
-9
-9
-9
-8
-6
-5
-4
-4
-5
-6
-8
-10
-11
-11
-10
-7
-4
-1
2
4
5
5
5
5
5
5
6
8
10
14
17
21
25
28
32
35
37
39
42
44
46
49
53
57
61
65
69
72
73
73
72
70
68
65
63
62
61
60
59
58
55
52
47
41
35
29
24
18
14
9
5
1
-3
-7
-11
-14
-16
-17
-17
-16
-15
-14
-14
-15
-17
-19
-21
-23
-24
-23
-21
-18
-15
-13
-12
-12
-14
-18
-22
-26
-29
-31
-30
-28
-24
-18
-13
-8
-4
-3
-4
-7
-12
-19
-25
-30
-32
-32
-29
-24
-18
-12
-8
-6
-6
-9
-14
-19
-24
-27
-29
-28
-25
-22
-17
-14
-11
-10
-10
-10
-11
-12
-12
-12
-11
-9
-7
-5
-3
-1
0
1
1
1
0
-1
-1
0
2
4
8
11
15
17
18
16
13
8
1
-6
-12
-18
-21
-22
-21
-19
-15
-10
-6
-3
-3
-4
-8
-14
-21
-27
-33
-36
-37
-35
-31
-27
-23
-20
-19
-21
-24
-28
-32
-34
-34
-32
-28
-23
-19
-17
-17
-20
-23
-27
-28
-27
-20
-9
7
28
50
74
96
115
130
139
141
135
122
103
77
49
20
-7
-29
-44
-52
-51
-45
-35
-23
-14
-7
-5
-7
-12
-19
-25
-30
-34
-35
-34
-33
-31
-30
-29
-28
-27
-26
-25
-23
-21
-20
-20
-21
-23
-25
-27
-28
-28
-25
-21
-16
-10
-5
-1
2
2
-1
-5
-11
-18
-24
-29
-31
-32
-30
-26
-20
-14
-7
-1
3
6
7
6
5
2
0
-2
-4
-5
-6
-6
-5
-3
-1
2
5
8
10
12
14
16
18
21
25
31
37
44
50
55
58
59
58
56
53
51
50
52
54
59
63
68
70
71
70
66
62
56
50
45
41
38
35
33
32
31
30
29
29
29
29
27
24
19
12
3
-7
-16
-25
-31
-34
-33
-29
-22
-15
-9
-4
-2
-3
-6
-12
-18
-24
-29
-32
-33
-32
-30
-27
-23
-19
-16
-13
-12
-12
-12
-14
-17
-20
-23
-26
-27
-27
-26
-24
-20
-16
-13
-10
-8
-8
-9
-12
-16
-21
-25
-28
-30
-31
-31
-29
-27
-24
-21
-18
-14
-10
-6
-2
0
3
4
5
6
8
10
12
13
14
14
11
6
0
-7
-12
-15
-15
-11
-4
4
13
19
21
19
13
4
-6
-15
-22
-24
-24
-21
-17
-14
-13
-15
-20
-26
-31
-34
-35
-31
-24
-15
-6
1
4
2
-3
-12
-22
-32
-39
-42
-42
-39
-34
-28
-23
-21
-21
-23
-26
-30
-33
-32
-28
-18
-3
17
40
66
93
116
136
149
153
150
138
120
97
72
47
24
5
-9
-19
-25
-28
-29
-29
-28
-28
-28
-29
-29
-30
-30
-29
-28
-25
-21
-16
-11
-6
-2
0
-2
-6
-13
-22
-32
-39
-45
-46
-43
-38
-30
-22
-16
-12
-11
-14
-18
-22
-26
-29
-28
-26
-23
-19
-16
-13
-12
-12
-13
-12
-11
-9
-6
-3
-1
0
-1
-3
-6
-10
-12
-13
-12
-8
-3
3
8
13
16
17
16
15
13
11
9
9
10
12
15
19
24
28
33
38
42
45
47
48
47
45
42
38
36
34
35
38
43
50
58
66
73
78
80
80
76
70
63
53
43
33
24
17
13
11
11
13
16
18
18
15
9
0
-11
-22
-31
-38
-40
-38
-33
-24
-15
-7
-1
1
-1
-6
-12
-19
-25
-28
-29
-27
-22
-17
-12
-8
-6
-6
-9
-13
-18
-22
-25
-27
-28
-28
-27
-27
-28
-29
-30
-30
-29
-27
-22
-16
-10
-4
-1
1
-1
-4
-9
-15
-19
-21
-22
-20
-16
-12
-8
-5
-3
-3
-4
-6
-8
-10
-11
-11
-11
-9
-6
-3
0
4
8
12
15
16
15
12
7
0
-7
-14
-19
-22
-21
-16
-9
-1
7
13
16
15
10
3
-7
-16
-24
-30
-33
-33
-31
-28
-26
-24
-24
-26
-28
-31
-33
-33
-33
-31
-28
-25
-22
-22
-22
-25
-29
-33
-37
-41
-43
-43
-40
-36
-30
-21
-10
3
19
36
54
73
91
107
119
126
127
121
109
93
73
52
31
12
-3
-14
-22
-26
-27
-27
-25
-24
-23
-22
-22
-23
-23
-23
-23
-23
-23
-24
-25
-26
-28
-30
-31
-32
-33
-32
-30
-28
-24
-22
-20
-19
-19
-21
-23
-25
-25
-25
-22
-18
-14
-10
-7
-6
-7
-10
-15
-19
-24
-26
-27
-27
-24
-21
-17
-14
-11
-9
-7
-6
-6
-5
-6
-6
-7
-8
-8
-8
-8
-6
-3
0
2
5
6
6
6
7
8
11
15
21
28
35
41
46
48
49
49
49
50
51
54
58
61
63
64
62
59
55
51
49
50
53
59
65
70
74
73
69
61
50
39
27
17
10
5
2
1
1
0
-1
-3
-5
-7
-10
-12
-14
-15
-18
-20
-23
-25
-27
-29
-28
-27
-24
-19
-15
-12
-10
-10
-12
-16
-20
-23
-25
-25
-23
-19
-15
-10
-7
-6
-6
-9
-13
-18
-21
-23
-23
-20
-15
-10
-6
-4
-4
-8
-14
-22
-31
-37
-41
-42
-39
-32
-24
-16
-9
-4
-2
-3
-6
-10
-13
-15
-15
-13
-9
-3
3
7
11
12
12
10
8
6
5
4
4
5
6
7
6
5
3
0
-2
-4
-4
-5
-4
-4
-3
-4
-5
-7
-10
-12
-14
-15
-16
-16
-16
-16
-17
-18
-20
-23
-25
-28
-30
-31
-32
-31
-30
-28
-25
-23
-20
-19
-19
-20
-23
-27
-31
-36
-39
-40
-37
-30
-17
0
21
44
68
90
108
121
128
128
122
111
97
80
63
46
30
17
5
-5
-13
-20
-26
-30
-33
-34
-34
-32
-28
-24
-20
-17
-15
-15
-17
-20
-24
-29
-32
-33
-32
-29
-24
-19
-15
-12
-12
-15
-19
-24
-29
-33
-35
-34
-30
-25
-20
-14
-9
-6
-4
-3
-3
-4
-5
-6
-7
-9
-11
-14
-17
-20
-21
-22
-20
-16
-10
-4
2
7
10
10
7
2
-4
-11
-17
-21
-22
-21
-17
-12
-6
1
8
15
21
26
31
35
39
42
44
45
46
47
48
49
50
52
55
57
59
60
61
61
60
60
59
59
60
60
61
60
58
54
49
43
37
31
25
21
17
15
13
10
8
5
2
-2
-5
-8
-9
-10
-9
-9
-8
-7
-8
-10
-13
-17
-21
-24
-27
-28
-27
-26
-24
-22
-20
-19
-19
-20
-21
-22
-22
-21
-19
-17
-14
-12
-12
-13
-15
-18
-22
-26
-28
-29
-28
-25
-22
-17
-13
-10
-8
-7
-8
-9
-10
-12
-14
-15
-16
-17
-19
-19
-20
-20
-19
-18
-15
-12
-9
-5
-2
1
2
3
2
1
-1
-3
-5
-6
-5
-4
0
4
8
12
14
15
13
9
4
-2
-7
-11
-12
-12
-9
-7
-4
-3
-5
-8
-14
-21
-27
-31
-34
-33
-29
-24
-18
-13
-10
-10
-12
-17
-22
-27
-31
-33
-32
-29
-26
-22
-19
-18
-19
-21
-25
-28
-31
-31
-29
-24
-16
-5
7
22
38
55
73
91
107
120
130
134
132
124
111
93
74
54
34
17
3
-8
-17
-23
-27
-31
-33
-34
-34
-33
-31
-28
-25
-22
-18
-15
-13
-12
-12
-13
-16
-20
-24
-29
-33
-37
-38
-38
-36
-32
-28
-22
-16
-11
-7
-4
-3
-3
-5
-9
-12
-16
-19
-21
-21
-19
-16
-12
-9
-6
-5
-6
-9
-14
-19
-23
-25
-25
-22
-16
-9
-1
6
11
14
15
13
9
4
-1
-5
-7
-6
-3
3
11
20
28
35
40
42
41
37
33
28
25
24
27
32
41
50
60
69
76
80
82
80
78
74
71
68
65
63
62
59
56
53
49
45
41
38
36
34
32
29
24
18
11
3
-5
-13
-19
-22
-24
-24
-23
-22
-21
-21
-21
-22
-22
-21
-18
-15
-10
-6
-3
-2
-3
-6
-12
-18
-24
-29
-31
-31
-28
-24
-19
-14
-9
-7
-5
-5
-5
-6
-7
-8
-9
-10
-12
-15
-19
-24
-29
-34
-37
-39
-38
-35
-30
-23
-17
-10
-5
-1
0
0
-1
-3
-6
-9
-12
-14
-16
-17
-18
-17
-16
-14
-11
-7
-3
1
5
8
9
9
8
6
4
2
2
2
4
6
9
12
14
16
16
14
12
8
4
0
-4
-8
-10
-12
-12
-12
-12
-11
-11
-11
-12
-15
-18
-22
-25
-28
-29
-29
-27
-23
-19
-14
-9
-6
-5
-6
-8
-13
-18
-24
-29
-33
-36
-37
-36
-33
-29
-23
-15
-6
5
18
33
49
65
81
96
108
115
117
114
104
88
69
49
29
13
2
-4
-5
-1
4
9
12
11
7
-1
-11
-22
-31
-37
-40
-39
-36
-31
-26
-21
-17
-14
-12
-11
-11
-11
-13
-15
-18
-22
-26
-30
-33
-34
-33
-29
-23
-16
-9
-3
2
5
5
3
-1
-5
-10
-13
-15
-16
-15
-12
-10
-7
-6
-5
-5
-6
-7
-8
-8
-8
-6
-3
1
4
8
10
11
11
10
9
7
6
5
5
5
7
9
12
16
20
25
30
36
42
48
52
55
56
55
52
48
45
41
40
40
43
47
54
60
66
72
75
77
78
77
75
73
70
67
63
59
53
46
38
30
22
14
8
3
-2
-4
-6
-7
-8
-8
-8
-8
-8
-8
-8
-8
-7
-7
-8
-8
-9
-10
-11
-11
-12
-13
-13
-13
-14
-15
-16
-17
